mass 1.8981872396165582e+27
radius 69373000.0
rotationPeriod 35730.0
navballSwitchAltitude 4162380.0
atmosphere true
atmosphereMolarMass 0.0022105
atmosphereLimit 1550000.0

pressureCurve
 0.0 98078.6 -1.96157 -1.96157
 10000.0 78462.9 -1.503872 -1.503872
 25000.0 62770.3 -0.9415567 -0.9415567
 40000.0 50216.2 -0.7532433 -0.7532433
 55000.0 40173.0 -0.6025933 -0.6025933
 70000.0 32138.4 -0.4820767 -0.4820767
 85000.0 25710.7 -0.38566 -0.38566
 100000.0 20568.6 -0.3085299 -0.3085299
 115000.0 16454.8 -0.2468233 -0.2468233
 130000.0 13163.9 -0.1974567 -0.1974567
 145000.0 10531.1 -0.157967 -0.157967
 160000.0 8424.89 -0.126373 -0.126373
 175000.0 6739.91 -0.1010986 -0.1010986
 190000.0 5391.93 -0.080879 -0.080879
 205000.0 4313.54 -0.06470334 -0.06470334
 220000.0 3450.83 -0.05176234 -0.05176234
 235000.0 2760.67 -0.04141 -0.04141
 250000.0 2208.53 -0.034141 -0.034141
 265000.0 1736.44 -0.02893933 -0.02893933
 280000.0 1340.35 -0.02378395 -0.02378395
 300000.0 917.112 -0.01856175 -0.01856175
 320000.0 597.88 -0.01378082 -0.01378082
 340000.0 365.879 -0.009815101 -0.009815101
 360000.0 205.276 -0.00661385 -0.00661385
 380000.0 101.325 -0.004094738 -0.004094738
 400000.0 41.4865 -0.00218897 -0.00218897
 420000.0 13.7662 -0.0009263575 -0.0009263575
 440000.0 4.4322 -0.0003026 -0.0003026
 460000.0 1.6622 -9.261432e-05 -9.261432e-05
 480000.0 0.727627 -3.374212e-05 -3.374212e-05
 500000.0 0.312515 -1.478427e-05 -1.478427e-05
 520000.0 0.136256 -6.240447e-06 -6.240447e-06
 540000.0 0.0628971 -2.690145e-06 -2.690145e-06
 560000.0 0.0286502 -1.253107e-06 -1.253107e-06
 580000.0 0.0127728 -5.744015e-07 -5.744015e-07
 600000.0 0.00567414 -2.565243e-07 -2.565243e-07
 620000.0 0.00251183 -1.140493e-07 -1.140493e-07
 640000.0 0.00111217 -5.06054e-08 -5.06054e-08
 660000.0 0.000487614 -2.227025e-08 -2.227025e-08
 680000.0 0.00022136 -9.266375e-09 -9.266375e-09
 700000.0 0.000116959 -4.001665e-09 -4.001665e-09
 720000.0 6.12934e-05 -2.070188e-09 -2.070188e-09
 740000.0 3.41515e-05 -9.984851e-10 -9.984851e-10
 760000.0 2.1354e-05 -4.829175e-10 -4.829175e-10
 780000.0 1.48348e-05 -2.6218e-10 -2.6218e-10
 800000.0 1.08668e-05 -1.64371e-10 -1.64371e-10
 820000.0 8.25996e-06 -1.065115e-10 -1.065115e-10
 840000.0 6.60634e-06 -7.309825e-11 -7.309825e-11
 860000.0 5.33603e-06 -5.731125e-11 -5.731125e-11
 880000.0 4.31389e-06 -4.5109e-11 -4.5109e-11
 900000.0 3.53167e-06 -3.427399e-11 -3.427399e-11
 920000.0 2.94293e-06 -2.635275e-11 -2.635275e-11
 940000.0 2.47756e-06 -2.1208e-11 -2.1208e-11
 960000.0 2.09461e-06 -1.764475e-11 -1.764475e-11
 980000.0 1.77177e-06 -1.4864e-11 -1.4864e-11
 1000000.0 1.50005e-06 -1.24695e-11 -1.24695e-11
 1020000.0 1.27299e-06 -1.0444e-11 -1.0444e-11
 1040000.0 1.08229e-06 -8.725949e-12 -8.725949e-12
 1060000.0 9.23952e-07 -7.227476e-12 -7.227476e-12
 1080000.0 7.93191e-07 -5.963849e-12 -5.963849e-12
 1100000.0 6.85398e-07 -4.915751e-12 -4.915751e-12
 1120000.0 5.96561e-07 -4.084299e-12 -4.084299e-12
 1140000.0 5.22026e-07 -3.4459e-12 -3.4459e-12
 1160000.0 4.58725e-07 -2.944001e-12 -2.944001e-12
 1180000.0 4.04266e-07 -2.5455e-12 -2.5455e-12
 1200000.0 3.56905e-07 -2.2227e-12 -2.2227e-12
 1220000.0 3.15358e-07 -1.95885e-12 -1.95885e-12
 1240000.0 2.78551e-07 -1.735275e-12 -1.735275e-12
 1260000.0 2.45947e-07 -1.539625e-12 -1.539625e-12
 1280000.0 2.16966e-07 -1.3659e-12 -1.3659e-12
 1300000.0 1.91311e-07 -1.2084e-12 -1.2084e-12
 1320000.0 1.6863e-07 -1.06335e-12 -1.06335e-12
 1340000.0 1.48777e-07 -9.289e-13 -9.289e-13
 1360000.0 1.31474e-07 -8.114751e-13 -8.114751e-13
 1380000.0 1.16318e-07 -7.083999e-13 -7.083999e-13
 1400000.0 1.03138e-07 -5.35776e-13 -5.35776e-13
 1450000.0 8.25104e-08 -3.71297e-13 -3.71297e-13
 1500000.0 6.60083e-08 -2.970379e-13 -2.970379e-13
 1550000.0 5.28066e-08 -2.640339e-13 -2.640339e-13

temperatureCurve
 0.0 152.0 0.12047 0.12047
 10000.0 1356.7 0.05707833 0.05707833
 25000.0 1262.0 -0.006089998 -0.006089998
 40000.0 1174.0 -0.005663334 -0.005663334
 55000.0 1092.1 -0.005269999 -0.005269999
 70000.0 1015.9 -0.004903332 -0.004903332
 85000.0 945.0 -0.004560002 -0.004560002
 100000.0 879.1 -0.004240001 -0.004240001
 115000.0 817.8 -0.003946666 -0.003946666
 130000.0 760.7 -0.003673334 -0.003673334
 145000.0 707.6 -0.003413334 -0.003413334
 160000.0 658.3 -0.003176666 -0.003176666
 175000.0 612.3 -0.002956667 -0.002956667
 190000.0 569.6 -0.002746665 -0.002746665
 205000.0 529.9 -0.002556666 -0.002556666
 220000.0 492.9 -0.002380001 -0.002380001
 235000.0 458.5 -0.002213333 -0.002213333
 250000.0 426.5 -0.002046667 -0.002046667
 265000.0 397.1 -0.001963333 -0.001963333
 280000.0 367.6 -0.001968333 -0.001968333
 300000.0 328.2 -0.001975 -0.001975
 320000.0 288.6 -0.00199 -0.00199
 340000.0 248.6 -0.0020175 -0.0020175
 360000.0 207.9 -0.0020625 -0.0020625
 380000.0 166.1 -0.0020075 -0.0020075
 400000.0 127.6 -0.0013225 -0.0013225
 420000.0 113.2 -0.000125 -0.000125
 440000.0 122.6 0.0007650002 0.0007650002
 460000.0 143.8 0.000885 0.000885
 480000.0 158.0 0.0001524997 0.0001524997
 500000.0 149.9 7.750014e-05 7.750014e-05
 520000.0 161.1 0.0004650002 0.0004650002
 540000.0 168.5 -8.749998e-05 -8.749998e-05
 560000.0 157.6 -0.0002625 -0.0002625
 580000.0 158.0 -1.500015e-05 -1.500015e-05
 600000.0 157.0 -5.499992e-05 -5.499992e-05
 620000.0 155.8 -0.0001474998 -0.0001474998
 640000.0 151.1 -5.250015e-05 -5.250015e-05
 660000.0 153.7 0.0007574997 0.0007574997
 680000.0 181.4 0.0010375 0.0010375
 700000.0 195.2 0.000425 0.000425
 720000.0 198.4 0.0009325001 0.0009325001
 740000.0 232.5 0.0022725 0.0022725
 760000.0 289.3 0.0034225 0.0034225
 780000.0 369.4 0.002597501 0.002597501
 800000.0 393.2 0.00284 0.00284
 820000.0 483.0 0.003557499 0.003557499
 840000.0 535.5 0.00132 0.00132
 860000.0 535.8 0.0002675003 0.0002675003
 880000.0 546.2 0.001465001 0.001465001
 900000.0 594.4 0.0024075 0.0024075
 920000.0 642.5 0.001739999 0.001739999
 940000.0 664.0 0.0006949997 0.0006949997
 960000.0 670.3 0.0001475006 0.0001475006
 980000.0 669.9 0.0001050003 0.0001050003
 1000000.0 674.5 0.0002599991 0.0002599991
 1020000.0 680.3 0.0004550003 0.0004550003
 1040000.0 692.7 0.0008100006 0.0008100006
 1060000.0 712.7 0.0012075 0.0012075
 1080000.0 741.0 0.001584999 0.001584999
 1100000.0 776.1 0.001775 0.001775
 1120000.0 812.0 0.001597501 0.001597501
 1140000.0 840.0 0.001255 0.001255
 1160000.0 862.2 0.0009274994 0.0009274994
 1180000.0 877.1 0.0005550003 0.0005550003
 1200000.0 884.4 0.0002050003 0.0002050003
 1220000.0 885.3 -7.5e-05 -7.5e-05
 1240000.0 881.4 -0.0002524994 -0.0002524994
 1260000.0 875.2 -0.0003075012 -0.0003075012
 1280000.0 869.1 -0.0002449997 -0.0002449997
 1300000.0 865.4 -7.5e-05 -7.5e-05
 1320000.0 866.1 0.0001699997 0.0001699997
 1340000.0 872.2 0.0004450012 0.0004450012
 1360000.0 883.9 0.0006175003 0.0006175003
 1380000.0 896.9 0.0004849991 0.0004849991
 1400000.0 903.3 0.0002499991 0.0002499991
 1450000.0 912.3 0.0001079999 0.0001079999
 1500000.0 914.1 3.600037e-05 3.600037e-05
 1550000.0 915.9 3.600098e-05 3.600098e-05