mass 8.681273407389496e+25
radius 24702000.0
rotationPeriod 62063.712
navballSwitchAltitude 1482120.0
atmosphere true
atmosphereMolarMass 0.002643
atmosphereLimit 1400000.0

pressureCurve
 0.0 101325.0 0.0 -0.418209
 25000.0 91221.5 -0.39026 -0.39026
 50000.0 81802.8 -0.363415 -0.363415
 75000.0 73041.8 -0.337635 -0.337635
 100000.0 64912.5 -0.312879 -0.312879
 125000.0 57389.7 -0.289107 -0.289107
 150000.0 50449.3 -0.266278 -0.266278
 175000.0 44068.3 -0.244351 -0.244351
 200000.0 38224.6 -0.223283 -0.223283
 225000.0 32897.4 -0.20303 -0.20303
 250000.0 28066.7 -0.183549 -0.183549
 275000.0 23713.9 -0.164795 -0.164795
 300000.0 19821.2 -0.146725 -0.146725
 325000.0 16372.2 -0.129307 -0.129307
 350000.0 13350.6 -0.112526 -0.112526
 375000.0 10740.4 -0.0964021 -0.0964021
 400000.0 8522.94 -0.0812558 -0.0812558
 425000.0 6663.21 -0.0678024 -0.0678024
 450000.0 5119.42 -0.055957 -0.055957
 475000.0 3853.06 -0.0455879 -0.0455879
 500000.0 2828.77 -0.0365709 -0.0365709
 525000.0 2014.22 -0.0287896 -0.0287896
 550000.0 1379.9 -0.0221345 -0.0221345
 575000.0 898.965 -0.0165029 -0.0165029
 600000.0 547.027 -0.0117991 -0.0117991
 625000.0 302.023 -0.00793403 -0.00793403
 650000.0 143.952 -0.00483315 -0.00483315
 675000.0 54.4872 -0.00244405 -0.00244405
 700000.0 15.4202 -0.000830456 -0.000830456
 750000.0 1.16308 -5.31023e-05 -5.31023e-05
 800000.0 0.137922 -5.60162e-06 -5.60162e-06
 850000.0 0.0290118 -6.81046e-07 -6.81046e-07
 900000.0 0.00944111 -2.09856e-07 -2.09856e-07
 950000.0 0.00317065 -6.71703e-08 -6.71703e-08
 1000000.0 0.001164 -2.16742e-08 -2.16742e-08
 1050000.0 0.000501411 -7.54963e-09 -7.54963e-09
 1150000.0 0.000149012 -1.45432e-09 -1.45432e-09
 1250000.0 6.51615e-05 -4.66999e-10 -4.66999e-10
 1400000.0 0.0 0.0 0.0

temperatureCurve
 0.0 731.3 0.0 -0.001083
 100000.0 621.2 -0.001118 -0.001118
 200000.0 508.5 -0.00113 -0.00113
 300000.0 398.0 -0.001053 -0.001053
 400000.0 306.6 -0.000789 -0.000789
 500000.0 224.3 -0.000862 -0.000862
 570000.0 161.7 -0.000929 -0.000929
 630000.0 104.5 -0.000966 -0.000966
 680000.0 60.2 -0.00066 -0.00066
 699500.0 53.0 0.0 0.0
 721000.0 53.0 0.0 0.0
 740000.0 58.4 0.000414 0.000414
 761250.0 65.0 0.000122 0.000122
 802250.0 70.0 0.000122 0.000122
 820000.0 87.1 0.001355 0.001355
 850000.0 120.2 0.000674 0.000674
 867000.0 126.0 0.0 0.0
 930000.0 128.8 0.000128 0.000128
 1000000.0 149.7 0.00053 0.00053
 1100000.0 230.7 0.000994 0.000994
 1200000.0 336.1 0.001046 0.001046
 1300000.0 417.0 0.000632 0.000632
 1400000.0 469.1 0.00043 0.00043