mass 6.417120205436419e+23
radius 3375800.0
rotationPeriod 88642.6848
navballSwitchAltitude 202548.0
atmosphere true
atmosphereMolarMass 0.04348
atmosphereLimit 125000.0

pressureCurve
 0.0 1.14497 0.0 -9.86122e-05
 1000.0 1.05023 -9.09702e-05 -9.09702e-05
 2500.0 0.921749 -8.05331e-05 -8.05331e-05
 4000.0 0.808068 -7.12179e-05 -7.12179e-05
 5500.0 0.707591 -6.29106e-05 -6.29106e-05
 7152.0 0.6105 -5.48055e-05 -5.48055e-05
 8500.0 0.540656 -4.8926e-05 -4.8926e-05
 10000.0 0.471735 -4.30845e-05 -4.30845e-05
 12000.0 0.392522 -3.63104e-05 -3.63104e-05
 14000.0 0.325823 -3.05435e-05 -3.05435e-05
 16000.0 0.269773 -2.56397e-05 -2.56397e-05
 18000.0 0.222771 -2.14754e-05 -2.14754e-05
 20000.0 0.183449 -1.79445e-05 -1.79445e-05
 22000.0 0.150632 -1.49555e-05 -1.49555e-05
 24000.0 0.123318 -1.24302e-05 -1.24302e-05
 26000.0 0.100648 -1.03011e-05 -1.03011e-05
 28000.0 0.0818878 -8.51085e-06 -8.51085e-06
 30000.0 0.0664116 -7.00974e-06 -7.00974e-06
 35000.0 0.0387801 -4.25144e-06 -4.25144e-06
 40000.0 0.0221969 -2.51888e-06 -2.51888e-06
 45000.0 0.0124838 -1.4544e-06 -1.4544e-06
 50000.0 0.00693852 -8.20735e-07 -8.20735e-07
 55000.0 0.00382773 -4.57797e-07 -4.57797e-07
 60000.0 0.00209901 -2.53342e-07 -2.53342e-07
 65000.0 0.00114502 -1.39382e-07 -1.39382e-07
 70000.0 0.000619804 -7.70322e-08 -7.70322e-08
 75000.0 0.00033288 -4.10097e-08 -4.10097e-08
 80000.0 0.000181084 -2.19239e-08 -2.19239e-08
 85000.0 9.84296e-05 -1.21163e-08 -1.21163e-08
 90000.0 5.28556e-05 -6.64103e-09 -6.64103e-09
 95000.0 2.80103e-05 -3.5961e-09 -3.5961e-09
 100000.0 1.46342e-05 -1.92204e-09 -1.92204e-09
 105000.0 7.52905e-06 -1.01294e-09 -1.01294e-09
 113000.0 2.50968e-06 -3.51868e-10 -3.51868e-10
 125000.0 0.0 0.0 0.0

temperatureCurve
 0.0 194.75 0.0 -0.00062
 7152.0 193.6 0.0005 0.0005
 14250.0 197.9 0.0 0.0
 22000.0 189.6 -0.00129 -0.00129
 40000.0 165.6 -0.00111 -0.00111
 53000.0 157.9 -0.0003 -0.0003
 66500.0 156.5 0.0 0.0
 71000.0 154.6 0.0 0.0
 78600.0 159.0 0.0 0.0
 85000.0 153.9 -0.00109 -0.00109
 95000.0 145.0 -0.00057 -0.00057
 108000.0 137.2 -0.00103 -0.00103
 115000.0 127.6 -0.00142 -0.00142
 125000.0 118.3 -0.00024 0.0