mass 1.0241260971459244e+26
radius 24085000.0
rotationPeriod 58000.32
navballSwitchAltitude 1445100.0
atmosphere true
atmosphereMolarMass 0.002604
atmosphereLimit 1250000.0

pressureCurve
 0.0 101325.0 0.0 -0.521127
 20000.0 91247.1 -0.486879 -0.486879
 40000.0 81841.4 -0.453892 -0.453892
 60000.0 73083.3 -0.422121 -0.422121
 80000.0 64948.8 -0.391518 -0.391518
 100000.0 57415.1 -0.362037 -0.362037
 120000.0 50460.2 -0.333627 -0.333627
 140000.0 44063.2 -0.306241 -0.306241
 160000.0 38204.1 -0.279825 -0.279825
 180000.0 32864.0 -0.254328 -0.254328
 200000.0 28025.2 -0.229698 -0.229698
 220000.0 23670.7 -0.205885 -0.205885
 240000.0 19784.6 -0.182853 -0.182853
 260000.0 16351.5 -0.160584 -0.160584
 280000.0 13356.0 -0.139106 -0.139106
 300000.0 10781.4 -0.118515 -0.118515
 320000.0 8606.58 -0.0993524 -0.0993524
 340000.0 6790.0 -0.082715 -0.082715
 360000.0 5282.7 -0.0683712 -0.0683712
 380000.0 4041.82 -0.0560278 -0.0560278
 400000.0 3029.98 -0.0454272 -0.0454272
 420000.0 2214.63 -0.0363423 -0.0363423
 440000.0 1567.53 -0.028571 -0.028571
 460000.0 1064.26 -0.0219307 -0.0219307
 480000.0 683.36 -0.0163432 -0.0163432
 500000.0 403.847 -0.0117548 -0.0117548
 520000.0 208.199 -0.00790781 -0.00790781
 540000.0 85.0691 -0.00443461 -0.00443461
 560000.0 26.2779 -0.00167295 -0.00167295
 580000.0 7.28122 -0.000458867 -0.000458867
 600000.0 2.1993 -0.000124012 -0.000124012
 650000.0 0.268211 -8.09172e-06 -8.09172e-06
 700000.0 0.0721883 -1.71295e-06 -1.71295e-06
 750000.0 0.0234282 -5.06301e-07 -5.06301e-07
 800000.0 0.0081413 -1.69428e-07 -1.69428e-07
 850000.0 0.00289402 -5.96773e-08 -5.96773e-08
 900000.0 0.00103424 -2.12417e-08 -2.12417e-08
 950000.0 0.000371341 -7.56541e-09 -7.56541e-09
 1000000.0 0.000136678 -2.66293e-09 -2.66293e-09
 1050000.0 5.33754e-05 -9.64945e-10 -9.64945e-10
 1125000.0 1.4993e-05 -2.36917e-10 -2.36917e-10
 1250000.0 0.0 0.0 0.0

temperatureCurve
 0.0 717.7 0.0 -0.001348
 100000.0 580.5 -0.001389 -0.001389
 200000.0 443.0 -0.001332 -0.001332
 275000.0 351.4 -0.001048 -0.001048
 350000.0 285.9 -0.000888 -0.000888
 425000.0 211.9 -0.001086 -0.001086
 500000.0 121.7 -0.001394 -0.001394
 545000.0 63.2 -0.000814 -0.000814
 568000.0 54.5 0.0 0.0
 590000.0 58.7 0.000344 0.000344
 610000.0 67.8 0.000775 0.000775
 630000.0 93.2 0.001406 0.001406
 670000.0 131.6 0.000653 0.000653
 710000.0 150.6 0.00034 0.00034
 750000.0 160.6 0.000177 0.000177
 790000.0 165.5 7.3e-05 7.3e-05
 834500.0 167.0 0.0 0.0
 929500.0 167.0 0.0 0.0
 1000000.0 174.6 0.000205 0.000205
 1100000.0 204.0 0.000357 0.000357
 1200000.0 242.7 0.000398 0.000398
 1250000.0 262.3 0.000399 0.0