mass 1.3452248664299799e+23
radius 2573300.0
rotationPeriod 1377648.0
navballSwitchAltitude 154398.0
atmosphere true
atmosphereMolarMass 0.02755
atmosphereLimit 600000.0

pressureCurve
 0.0 159.018 0.0 -0.00747715
 1700.0 146.7 -0.00701793 -0.00701793
 3000.0 137.799 -0.00667838 -0.00667838
 4500.0 128.067 -0.0062993 -0.0062993
 6000.0 118.894 -0.00593386 -0.00593386
 8000.0 107.496 -0.0054679 -0.0054679
 10000.0 97.006 -0.00502627 -0.00502627
 12000.0 87.3748 -0.00460891 -0.00460891
 15000.0 74.4329 -0.00402798 -0.00402798
 20000.0 56.4797 -0.00317743 -0.00317743
 25000.0 42.4245 -0.00246723 -0.00246723
 30000.0 31.5914 -0.00188656 -0.00188656
 40000.0 17.2047 -0.00105786 -0.00105786
 50000.0 9.30008 -0.000570397 -0.000570397
 60000.0 5.10764 -0.000292345 -0.000292345
 70000.0 3.04815 -0.000137733 -0.000137733
 80000.0 2.04892 -7.25393e-05 -7.25393e-05
 100000.0 1.0869 -3.20363e-05 -3.20363e-05
 120000.0 0.617851 -1.68027e-05 -1.68027e-05
 140000.0 0.364361 -9.36345e-06 -9.36345e-06
 160000.0 0.220511 -5.41793e-06 -5.41793e-06
 180000.0 0.136183 -3.22018e-06 -3.22018e-06
 210000.0 0.0682663 -1.53028e-06 -1.53028e-06
 240000.0 0.0354184 -7.56769e-07 -7.56769e-07
 270000.0 0.0188934 -3.88778e-07 -3.88778e-07
 300000.0 0.010275 -2.06166e-07 -2.06166e-07
 350000.0 0.00381591 -7.49244e-08 -7.49244e-08
 400000.0 0.00143321 -2.80703e-08 -2.80703e-08
 450000.0 0.000534673 -1.06511e-08 -1.06511e-08
 500000.0 0.000195333 -3.96574e-09 -3.96574e-09
 550000.0 7.08311e-05 -1.43027e-09 -1.43027e-09
 580000.0 3.87916e-05 -7.73011e-10 -7.73011e-10
 600000.0 0.0 0.0 0.0

temperatureCurve
 0.0 95.0 0.0 -0.00105
 45000.0 70.0 0.0 0.0
 65000.0 82.0 0.002 0.002
 80000.0 119.0 0.002 0.002
 100000.0 141.0 0.0006 0.0006
 140000.0 157.5 0.0003 0.0003
 200000.0 170.0 0.00015 0.00015
 300000.0 178.0 0.0 0.0
 400000.0 171.0 -0.00012 -0.00012
 500000.0 155.0 -0.00012 -0.00012
 600000.0 150.0 0.0 0.0