mass 4.867466257521636e+24
radius 6049000.0
rotationPeriod -20996797.016381
navballSwitchAltitude 362940.0
atmosphere true
atmosphereMolarMass 0.04345
atmosphereLimit 145000.0

pressureCurve
 0.0 10905.2 0.0 -0.671223
 1000.0 10251.1 -0.637181 -0.637181
 2500.0 9332.0325 -0.588762 -0.588762
 4000.0 8483.3 -0.543376 -0.543376
 5500.0 7700.46 -0.500876 -0.500876
 7000.0 6979.3 -0.461126 -0.461126
 8500.0 6315.78 -0.42399 -0.42399
 10000.0 5706.08 -0.389339 -0.389339
 12000.0 4970.64 -0.346779 -0.346779
 14000.0 4316.37 -0.308115 -0.308115
 16000.0 3735.77 -0.273062 -0.273062
 18000.0 3221.89 -0.241354 -0.241354
 20000.0 2768.3 -0.212732 -0.212732
 22000.0 2369.03 -0.186999 -0.186999
 24000.0 2018.54 -0.163915 -0.163915
 26000.0 1711.79 -0.143204 -0.143204
 28000.0 1444.29 -0.124633 -0.124633
 30000.0 1211.97 -0.107998 -0.107998
 35000.0 761.588 -0.0737966 -0.0737966
 40000.0 459.232 -0.048474 -0.048474
 45000.0 264.922 -0.0303357 -0.0303357
 50000.0 145.933 -0.0181473 -0.0181473
 55000.0 75.5755 -0.0106108 -0.0106108
 60000.0 35.4446 -0.00577199 -0.00577199
 65000.0 14.9641 -0.0027001 -0.0027001
 70000.0 5.89415 -0.00112986 -0.00112986
 75000.0 2.19786 -0.000448342 -0.000448342
 80000.0 0.761142 -0.000167793 -0.000167793
 85000.0 0.242054 -5.75524e-05 -5.75524e-05
 90000.0 0.0708384 -1.79328e-05 -1.79328e-05
 95000.0 0.0194205 -5.11381e-06 -5.11381e-06
 100000.0 0.00514554 -1.37518e-06 -1.37518e-06
 110000.0 0.000344925 -9.49562e-08 -9.49562e-08
 120000.0 2.0532e-05 -5.88367e-09 -5.88367e-09
 125000.0 4.90042e-06 -1.40178e-09 -1.40178e-09
 130000.0 1.17978e-06 -3.33691e-10 -3.33691e-10
 135000.0 2.91419e-07 -8.03136e-11 -8.03136e-11
 145000.0 0.0 0.0 0.0

temperatureCurve
 0.0 753.0 0.0 -0.0076
 2500.0 734.0 -0.0076 -0.0076
 20000.0 599.0 -0.008 -0.008
 40000.0 433.0 -0.0075 -0.0075
 50000.0 364.0 -0.0072 -0.0072
 62500.0 255.0 -0.0052 -0.0052
 74000.0 226.0 -0.0031 -0.0031
 95000.0 170.0 -0.0012 -0.0012
 107500.0 160.0 -0.0011 -0.0011
 120000.0 147.0 -0.0004 -0.0004
 137500.0 150.0 0.0011 0.0011
 145000.0 163.5 0.0015 0.0